time,x displacment,y displacment,x velocity,y velocity,FX Force,FY Force,FZ Force
0.0,0.204753,-0.191714,-0.000801,0.000163,-374.207825,580.867004,1845.797485
0.1,0.204666,-0.191695,-0.000944,0.000208,-371.811432,579.47052,1845.53418
0.2,0.204565,-0.191672,-0.001073,0.000257,-369.499939,577.926025,1845.244385
0.3,0.204451,-0.191644,-0.001195,0.000309,-367.200989,576.238525,1844.928589
0.4,0.204326,-0.19161,-0.001315,0.000364,-364.828674,574.408813,1844.586792
0.5,0.204188,-0.191571,-0.001446,0.000421,-362.223633,572.429688,1844.217529
0.6,0.204035,-0.191526,-0.0016,0.000482,-359.246552,570.286255,1843.816772
0.7,0.203867,-0.191474,-0.001771,0.000546,-355.939911,567.966919,1843.382202
0.8,0.203681,-0.191416,-0.001948,0.000614,-352.433258,565.466003,1842.913696
0.9,0.203477,-0.191351,-0.002122,0.000685,-348.852448,562.78302,1842.411255
1.0,0.203257,-0.191279,-0.002282,0.000759,-345.312744,559.922913,1841.876343
1.1,0.203022,-0.191199,-0.002427,0.000836,-341.863983,556.8927,1841.310791
1.2,0.202772,-0.191112,-0.002561,0.000915,-338.457367,553.697266,1840.715332
1.3,0.20251,-0.191016,-0.002692,0.000996,-334.988861,550.337708,1840.090088
1.4,0.202234,-0.190912,-0.00283,0.00108,-331.339905,546.809814,1839.433472
1.5,0.201943,-0.1908,-0.00298,0.001165,-327.43573,543.106812,1838.744019
1.6,0.201637,-0.190679,-0.003139,0.001253,-323.31897,539.223816,1838.020508
1.7,0.201316,-0.190549,-0.003296,0.001343,-319.111572,535.160339,1837.263306
1.8,0.200978,-0.19041,-0.003446,0.001436,-314.893524,530.920959,1836.473999
1.9,0.200627,-0.190262,-0.003582,0.001529,-310.732391,526.515259,1835.654175
2.0,0.200263,-0.190104,-0.003701,0.001624,-306.707245,521.956665,1834.806641
2.1,0.199888,-0.189937,-0.003802,0.001718,-302.83374,517.259521,1833.93457
2.2,0.199503,-0.189761,-0.003892,0.001813,-299.01416,512.434509,1833.039917
2.3,0.199109,-0.189575,-0.003988,0.001907,-295.062653,507.483429,1832.12207
2.4,0.198705,-0.189379,-0.004096,0.002001,-290.896698,502.406525,1831.180298
2.5,0.19829,-0.189174,-0.00421,0.002095,-286.566193,497.206818,1830.215332
2.6,0.197863,-0.18896,-0.004325,0.002188,-282.153778,491.891815,1829.228882
2.7,0.197425,-0.188737,-0.00443,0.00228,-277.786407,486.474213,1828.223267
2.8,0.196978,-0.188504,-0.004513,0.00237,-273.618988,480.973846,1827.203003
2.9,0.196524,-0.188263,-0.004569,0.002458,-269.747955,475.415527,1826.173096
3.0,0.196066,-0.188013,-0.004598,0.002542,-266.185974,469.824951,1825.13855
3.1,0.195606,-0.187755,-0.004605,0.002621,-262.87973,464.22522,1824.103271
3.2,0.195146,-0.187489,-0.004597,0.002696,-259.758636,458.636322,1823.070557
3.3,0.194687,-0.187216,-0.004577,0.002766,-256.786987,453.07608,1822.043457
3.4,0.194231,-0.186936,-0.004544,0.00283,-254.006607,447.562561,1821.025024
3.5,0.19378,-0.18665,-0.004489,0.002888,-251.53569,442.117798,1820.019775
3.6,0.193335,-0.186359,-0.004402,0.002939,-249.507401,436.767303,1819.032959
3.7,0.192901,-0.186063,-0.004283,0.002983,-247.94548,431.533203,1818.069214
3.8,0.19248,-0.185763,-0.004143,0.003019,-246.739273,426.431244,1817.131104
3.9,0.192073,-0.185459,-0.004,0.003048,-245.676895,421.465271,1816.218994
4.0,0.191679,-0.185153,-0.003872,0.003071,-244.51062,416.623138,1815.329346
4.1,0.191297,-0.184845,-0.003769,0.003088,-243.112656,411.887909,1814.458252
4.2,0.190924,-0.184536,-0.003686,0.0031,-241.539337,407.240845,1813.601807
4.3,0.19056,-0.184226,-0.003605,0.00311,-239.997864,402.668274,1812.758179
4.4,0.190204,-0.183914,-0.003505,0.003115,-238.751175,398.172791,1811.928955
4.5,0.18986,-0.183603,-0.003374,0.003117,-237.973206,393.761993,1811.116699
4.6,0.189531,-0.183291,-0.003221,0.003116,-237.569931,389.436005,1810.321899
4.7,0.189216,-0.18298,-0.003071,0.003111,-237.240463,385.184479,1809.541748
4.8,0.188915,-0.182669,-0.002942,0.003105,-236.735107,380.99118,1808.771973
4.9,0.188626,-0.182359,-0.002845,0.003098,-235.913681,376.835266,1808.008179
5.0,0.188344,-0.182049,-0.002789,0.00309,-234.6474,372.690338,1807.245605
5.1,0.188065,-0.181741,-0.002776,0.003084,-232.856644,368.527893,1806.477905
5.2,0.187787,-0.181433,-0.002796,0.003079,-230.651474,364.326782,1805.701294
5.3,0.187505,-0.181125,-0.002832,0.003077,-228.243256,360.078186,1804.915283
5.4,0.18722,-0.180817,-0.002869,0.003076,-225.789215,355.784851,1804.121094
5.5,0.186932,-0.180509,-0.002901,0.003077,-223.368774,351.456604,1803.320679
5.6,0.186641,-0.180202,-0.002923,0.003079,-221.050385,347.111511,1802.517456
5.7,0.186348,-0.179894,-0.002928,0.00308,-218.950989,342.774323,1801.716187
5.8,0.186057,-0.179586,-0.002907,0.003079,-217.166687,338.475861,1800.923218
5.9,0.185768,-0.179278,-0.002861,0.003076,-215.726486,334.250214,1800.14502
6.0,0.185486,-0.178971,-0.002793,0.003069,-214.5905,330.129791,1799.387573
6.1,0.18521,-0.178665,-0.002714,0.003057,-213.6521,326.143188,1798.655884
6.2,0.184943,-0.17836,-0.002638,0.003039,-212.723282,322.307831,1797.952637
6.3,0.184682,-0.178057,-0.002573,0.003016,-211.700165,318.638092,1797.279297
6.4,0.184428,-0.177757,-0.002513,0.002988,-210.672089,315.149719,1796.638428
6.5,0.184181,-0.17746,-0.002435,0.002953,-209.910507,311.867188,1796.0354
6.6,0.183943,-0.177167,-0.002318,0.00291,-209.70108,308.8237,1795.477661
6.7,0.18372,-0.176878,-0.002153,0.002859,-210.189301,306.057678,1794.9729
6.8,0.183515,-0.176596,-0.001938,0.002798,-211.433441,303.608734,1794.528198
6.9,0.183335,-0.176319,-0.001669,0.002727,-213.524323,301.517181,1794.151123
7.0,0.183185,-0.176051,-0.001346,0.002644,-216.491699,299.816162,1793.848511
7.1,0.183068,-0.175791,-0.000986,0.00255,-220.153503,298.524323,1793.623779
7.2,0.182988,-0.175541,-0.000623,0.002446,-224.109207,297.634857,1793.474609
7.3,0.182942,-0.175303,-0.00029,0.002332,-227.922806,297.117432,1793.393433
7.4,0.182927,-0.175075,-6e-06,0.002212,-231.355896,296.926453,1793.370361
7.5,0.182939,-0.17486,0.000238,0.002088,-234.47023,297.019012,1793.397339
7.6,0.182973,-0.174658,0.000461,0.00196,-237.485016,297.355133,1793.467773
7.7,0.18303,-0.174468,0.000676,0.001832,-240.556717,297.903564,1793.577515
7.8,0.183108,-0.174292,0.000883,0.001703,-243.682022,298.636566,1793.721558
7.9,0.183206,-0.174128,0.001073,0.001575,-246.728165,299.524536,1793.894409
8.0,0.183321,-0.173976,0.001231,0.00145,-249.495316,300.53302,1794.088867
8.1,0.183449,-0.173838,0.001346,0.001328,-251.832626,301.626495,1794.297729
8.2,0.183588,-0.173711,0.001421,0.00121,-253.724731,302.773865,1794.515015
8.3,0.183732,-0.173595,0.001464,0.001098,-255.269501,303.952911,1794.736938
8.4,0.183879,-0.173491,0.001486,0.000991,-256.583038,305.151215,1794.961792
8.5,0.184028,-0.173397,0.001496,0.000889,-257.743134,306.364349,1795.189209
8.6,0.184178,-0.173313,0.001495,0.000793,-258.776489,307.593231,1795.419434
8.7,0.184327,-0.173238,0.001483,0.000701,-259.677765,308.842133,1795.653564
8.8,0.184474,-0.173172,0.00146,0.000613,-260.419647,310.116486,1795.89209
8.9,0.184618,-0.173115,0.001427,0.000528,-261.013641,311.424225,1796.136475
9.0,0.184759,-0.173066,0.001389,0.000446,-261.523682,312.776978,1796.389038
9.1,0.184895,-0.173026,0.001346,0.000367,-261.951111,314.185181,1796.651978
9.2,0.185028,-0.172993,0.001302,0.000289,-262.333099,315.660919,1796.92688
9.3,0.185156,-0.172968,0.001265,0.000212,-262.770355,317.219482,1797.217285
9.4,0.185282,-0.172951,0.001238,0.000136,-263.311951,318.876373,1797.526001
9.5,0.185405,-0.172941,0.001224,5.9e-05,-263.999268,320.647705,1797.855835
9.6,0.185528,-0.172939,0.001232,-1.8e-05,-264.960754,322.553284,1798.210449
9.7,0.185653,-0.172944,0.001277,-9.8e-05,-266.400574,324.617737,1798.595093
9.8,0.185786,-0.172958,0.001367,-0.00018,-268.43924,326.865448,1799.015259
9.9,0.185929,-0.172981,0.001489,-0.000266,-270.957581,329.309967,1799.473511
10.0,0.186084,-0.173012,0.001621,-0.000355,-273.687744,331.950562,1799.96875
