Time,Force
0.0,1000.0
10.0,1020.7911690817759
20.0,1040.67366430758
30.0,1058.7785252292474
40.0,1074.3144825477393
50.0,1086.6025403784438
60.0,1095.1056516295153
70.0,1099.4521895368273
80.0,1099.4521895368273
90.0,1095.1056516295153
100.0,1086.6025403784438
110.0,1074.3144825477393
120.0,1058.7785252292474
130.0,1040.67366430758
140.0,1020.7911690817759
150.0,1000.0
160.0,979.2088309182241
170.0,959.32633569242
180.0,941.2214747707527
190.0,925.6855174522606
200.0,913.3974596215561
210.0,904.8943483704846
220.0,900.5478104631727
230.0,900.5478104631727
240.0,904.8943483704846
250.0,913.3974596215561
260.0,925.6855174522606
270.0,941.2214747707527
280.0,959.3263356924199
290.0,979.2088309182241
300.0,1000.0
310.0,1020.7911690817759
320.0,1040.6736643075799
330.0,1058.7785252292472
340.0,1074.3144825477393
350.0,1086.6025403784438
360.0,1095.1056516295153
370.0,1099.4521895368273
380.0,1099.4521895368273
390.0,1095.1056516295153
400.0,1086.6025403784438
410.0,1074.3144825477395
420.0,1058.7785252292474
430.0,1040.67366430758
440.0,1020.7911690817759
450.0,1000.0
460.0,979.208830918224
470.0,959.32633569242
480.0,941.2214747707527
490.0,925.6855174522607
500.0,913.3974596215562
510.0,904.8943483704846
520.0,900.5478104631727
530.0,900.5478104631727
540.0,904.8943483704846
550.0,913.3974596215562
560.0,925.6855174522605
570.0,941.2214747707526
580.0,959.3263356924199
590.0,979.2088309182241
600.0,1000.0
610.0,1020.791169081776
620.0,1040.67366430758
630.0,1058.7785252292472
640.0,1074.3144825477393
650.0,1086.6025403784438
660.0,1095.1056516295153
670.0,1099.4521895368273
680.0,1099.4521895368273
690.0,1095.1056516295153
700.0,1086.602540378444
710.0,1074.3144825477395
720.0,1058.7785252292474
730.0,1040.6736643075799
740.0,1020.7911690817762
750.0,1000.0000000000001
760.0,979.2088309182241
770.0,959.3263356924198
780.0,941.2214747707527
790.0,925.6855174522606
800.0,913.3974596215561
810.0,904.8943483704846
820.0,900.5478104631727
830.0,900.5478104631727
840.0,904.8943483704846
850.0,913.397459621556
860.0,925.6855174522605
870.0,941.2214747707526
880.0,959.32633569242
890.0,979.2088309182238
900.0,999.9999999999999
910.0,1020.7911690817759
920.0,1040.67366430758
930.0,1058.7785252292472
940.0,1074.3144825477395
950.0,1086.602540378444
960.0,1095.1056516295153
970.0,1099.4521895368273
980.0,1099.4521895368273
990.0,1095.1056516295155
1000.0,1086.602540378444
1010.0,1074.3144825477395
1020.0,1058.7785252292474
1030.0,1040.6736643075799
1040.0,1020.7911690817762
1050.0,1000.0000000000001
1060.0,979.2088309182241
1070.0,959.3263356924199
1080.0,941.2214747707527
1090.0,925.6855174522606
1100.0,913.3974596215561
1110.0,904.8943483704846
1120.0,900.5478104631727
1130.0,900.5478104631727
1140.0,904.8943483704846
1150.0,913.397459621556
1160.0,925.6855174522605
1170.0,941.2214747707526
1180.0,959.32633569242
1190.0,979.2088309182238
1200.0,999.9999999999999
1210.0,1020.7911690817759
1220.0,1040.67366430758
1230.0,1058.7785252292472
1240.0,1074.3144825477393
1250.0,1086.602540378444
1260.0,1095.1056516295153
1270.0,1099.4521895368273
1280.0,1099.4521895368273
1290.0,1095.1056516295155
1300.0,1086.602540378444
1310.0,1074.3144825477395
1320.0,1058.7785252292476
1330.0,1040.67366430758
1340.0,1020.7911690817762
1350.0,999.9999999999998
1360.0,979.2088309182241
1370.0,959.3263356924202
1380.0,941.2214747707525
1390.0,925.6855174522606
1400.0,913.3974596215562
1410.0,904.8943483704846
1420.0,900.5478104631727
1430.0,900.5478104631727
1440.0,904.8943483704846
1450.0,913.397459621556
1460.0,925.6855174522607
1470.0,941.2214747707526
1480.0,959.3263356924197
1490.0,979.2088309182242
1500.0,999.9999999999999
1510.0,1020.7911690817756
1520.0,1040.67366430758
1530.0,1058.778525229247
1540.0,1074.3144825477398
1550.0,1086.6025403784438
1560.0,1095.1056516295153
1570.0,1099.4521895368273
1580.0,1099.4521895368273
1590.0,1095.1056516295155
1600.0,1086.6025403784438
1610.0,1074.3144825477395
1620.0,1058.7785252292474
1630.0,1040.67366430758
1640.0,1020.7911690817765
1650.0,999.9999999999998
1660.0,979.2088309182244
1670.0,959.3263356924202
1680.0,941.2214747707528
1690.0,925.6855174522606
1700.0,913.3974596215564
1710.0,904.8943483704845
1720.0,900.5478104631727
1730.0,900.5478104631727
1740.0,904.8943483704846
1750.0,913.3974596215561
1760.0,925.6855174522607
1770.0,941.2214747707528
1780.0,959.3263356924197
1790.0,979.2088309182238
1800.0,999.9999999999999
1810.0,1020.7911690817753
1820.0,1040.67366430758
1830.0,1058.778525229247
1840.0,1074.3144825477395
1850.0,1086.6025403784438
1860.0,1095.1056516295153
1870.0,1099.4521895368273
1880.0,1099.4521895368273
1890.0,1095.1056516295155
1900.0,1086.6025403784438
1910.0,1074.3144825477395
1920.0,1058.7785252292474
1930.0,1040.67366430758
1940.0,1020.7911690817765
1950.0,999.9999999999998
1960.0,979.2088309182244
1970.0,959.3263356924202
1980.0,941.2214747707528
1990.0,925.6855174522606
2000.0,913.3974596215564
2010.0,904.8943483704845
2020.0,900.5478104631727
2030.0,900.5478104631727
2040.0,904.8943483704846
2050.0,913.3974596215561
2060.0,925.6855174522607
2070.0,941.2214747707523
2080.0,959.3263356924197
2090.0,979.2088309182238
2100.0,999.9999999999998
2110.0,1020.7911690817751
2120.0,1040.67366430758
2130.0,1058.778525229247
2140.0,1074.3144825477395
2150.0,1086.6025403784438
2160.0,1095.1056516295153
2170.0,1099.4521895368273
2180.0,1099.4521895368273
2190.0,1095.1056516295155
2200.0,1086.6025403784438
2210.0,1074.3144825477395
2220.0,1058.7785252292474
2230.0,1040.67366430758
2240.0,1020.7911690817766
2250.0,999.9999999999998
2260.0,979.2088309182245
2270.0,959.3263356924202
2280.0,941.2214747707528
2290.0,925.6855174522607
2300.0,913.3974596215564
2310.0,904.8943483704846
2320.0,900.5478104631727
2330.0,900.5478104631727
2340.0,904.8943483704845
2350.0,913.3974596215561
2360.0,925.6855174522606
2370.0,941.2214747707523
2380.0,959.3263356924195
2390.0,979.2088309182237
2400.0,999.9999999999998
2410.0,1020.7911690817751
2420.0,1040.67366430758
2430.0,1058.778525229247
2440.0,1074.3144825477395
2450.0,1086.6025403784438
2460.0,1095.1056516295153
2470.0,1099.4521895368273
2480.0,1099.4521895368273
2490.0,1095.1056516295155
2500.0,1086.6025403784438
2510.0,1074.3144825477395
2520.0,1058.7785252292474
2530.0,1040.67366430758
2540.0,1020.7911690817766
2550.0,999.9999999999999
2560.0,979.2088309182245
2570.0,959.3263356924202
2580.0,941.2214747707528
2590.0,925.6855174522607
2600.0,913.3974596215564
2610.0,904.8943483704846
2620.0,900.5478104631727
2630.0,900.5478104631726
2640.0,904.8943483704843
2650.0,913.3974596215561
2660.0,925.6855174522606
2670.0,941.2214747707523
2680.0,959.3263356924195
2690.0,979.2088309182237
2700.0,1000.0000000000005
2710.0,1020.7911690817758
2720.0,1040.67366430758
2730.0,1058.778525229247
2740.0,1074.314482547739
2750.0,1086.6025403784433
2760.0,1095.1056516295155
2770.0,1099.4521895368273
2780.0,1099.4521895368273
2790.0,1095.1056516295155
2800.0,1086.602540378444
2810.0,1074.314482547739
2820.0,1058.7785252292474
2830.0,1040.67366430758
2840.0,1020.7911690817766
2850.0,1000.0000000000006
2860.0,979.2088309182238
2870.0,959.3263356924197
2880.0,941.2214747707528
2890.0,925.6855174522607
2900.0,913.3974596215564
2910.0,904.8943483704849
2920.0,900.5478104631726
2930.0,900.5478104631727
2940.0,904.8943483704845
2950.0,913.3974596215561
2960.0,925.6855174522601
2970.0,941.2214747707528
2980.0,959.3263356924202
2990.0,979.2088309182237
3000.0,999.9999999999998
3010.0,1020.7911690817751
3020.0,1040.6736643075794
3030.0,1058.7785252292474
3040.0,1074.3144825477395
3050.0,1086.6025403784438
3060.0,1095.105651629515
3070.0,1099.4521895368273
3080.0,1099.4521895368273
3090.0,1095.1056516295155
3100.0,1086.602540378444
3110.0,1074.3144825477398
3120.0,1058.7785252292474
3130.0,1040.67366430758
3140.0,1020.7911690817759
3150.0,999.9999999999999
3160.0,979.2088309182238
3170.0,959.326335692421
3180.0,941.2214747707535
3190.0,925.6855174522602
3200.0,913.3974596215558
3210.0,904.8943483704849
3220.0,900.5478104631727
3230.0,900.5478104631726
3240.0,904.8943483704845
3250.0,913.3974596215561
3260.0,925.6855174522606
3270.0,941.2214747707527
3280.0,959.3263356924189
3290.0,979.208830918223
3300.0,1000.0000000000005
3310.0,1020.7911690817765
3320.0,1040.6736643075794
3330.0,1058.7785252292467
3340.0,1074.314482547739
3350.0,1086.6025403784445
3360.0,1095.1056516295153
3370.0,1099.4521895368273
3380.0,1099.4521895368273
3390.0,1095.1056516295153
3400.0,1086.6025403784445
3410.0,1074.3144825477393
3420.0,1058.778525229247
3430.0,1040.6736643075808
3440.0,1020.7911690817766
3450.0,1000.0000000000007
3460.0,979.2088309182232
3470.0,959.3263356924203
3480.0,941.2214747707529
3490.0,925.6855174522607
3500.0,913.3974596215562
3510.0,904.8943483704851
3520.0,900.5478104631727
3530.0,900.5478104631727
3540.0,904.8943483704847
3550.0,913.3974596215558
3560.0,925.68551745226
3570.0,941.2214747707533
3580.0,959.3263356924195
3590.0,979.2088309182236
3600.0,999.9999999999997
